time (s),position (m),speed (m/s)
0.1,0.0075000000000000015,0.07500000000000001
0.2,0.022500000000000006,0.15000000000000002
0.30000000000000004,0.04500000000000001,0.22500000000000003
0.4,0.07500000000000001,0.30000000000000004
0.5,0.11250000000000002,0.37500000000000006
0.6,0.15750000000000003,0.45000000000000007
0.7,0.21000000000000005,0.5250000000000001
0.7999999999999999,0.2700000000000001,0.6000000000000001
0.8999999999999999,0.3375000000000001,0.675
0.9999999999999999,0.4125000000000001,0.75
1.0999999999999999,0.4950000000000001,0.825
1.2,0.5850000000000001,0.8999999999999999
1.3,0.6825000000000001,0.9749999999999999
1.4000000000000001,0.7875000000000001,1.0499999999999998
1.5000000000000002,0.9000000000000001,1.1249999999999998
1.6000000000000003,1.02,1.1999999999999997
1.7000000000000004,1.1475,1.2749999999999997
1.8000000000000005,1.2825,1.3499999999999996
1.9000000000000006,1.4249999999999998,1.4249999999999996
2.0000000000000004,1.5749999999999997,1.4999999999999996
2.1000000000000005,1.7324999999999997,1.5749999999999995
2.2000000000000006,1.8974999999999997,1.6499999999999995
2.3000000000000007,2.07,1.7249999999999994
2.400000000000001,2.25,1.7999999999999994
2.500000000000001,2.4375,1.8749999999999993
2.600000000000001,2.6325,1.9499999999999993
2.700000000000001,2.835,2.0249999999999995
2.800000000000001,3.045,2.0999999999999996
2.9000000000000012,3.2624999999999997,2.175
3.0000000000000013,3.4875,2.25
3.1000000000000014,3.7199999999999998,2.325
3.2000000000000015,3.96,2.4000000000000004
3.3000000000000016,4.2075,2.4750000000000005
3.4000000000000017,4.4624999999999995,2.5500000000000007
3.5000000000000018,4.725,2.625000000000001
3.600000000000002,4.995,2.700000000000001
3.700000000000002,5.2725,2.7750000000000012
3.800000000000002,5.5575,2.8500000000000014
3.900000000000002,5.8500000000000005,2.9250000000000016
4.000000000000002,6.15,3.0000000000000018
4.100000000000001,6.4575000000000005,3.075000000000002
4.200000000000001,6.772500000000001,3.150000000000002
4.300000000000001,7.095000000000001,3.2250000000000023
4.4,7.425000000000001,3.3000000000000025
4.5,7.762500000000001,3.3750000000000027
4.6,8.107500000000002,3.450000000000003
4.699999999999999,8.460000000000003,3.525000000000003
4.799999999999999,8.820000000000004,3.600000000000003
4.899999999999999,9.187500000000004,3.6750000000000034
4.999999999999998,9.562500000000004,3.7500000000000036
5.099999999999998,9.945000000000004,3.8250000000000037
5.1999999999999975,10.335000000000004,3.900000000000004
5.299999999999997,10.732500000000005,3.975000000000004
5.399999999999997,11.137500000000006,4.050000000000004
5.4999999999999964,11.550000000000006,4.125000000000004
5.599999999999996,11.970000000000006,4.200000000000005
5.699999999999996,12.397500000000006,4.275000000000005
5.799999999999995,12.832500000000007,4.350000000000005
5.899999999999995,13.275000000000007,4.425000000000005
5.999999999999995,13.725000000000009,4.500000000000005
6.099999999999994,14.18250000000001,4.5750000000000055
6.199999999999994,14.64750000000001,4.650000000000006
6.299999999999994,15.12000000000001,4.725000000000006
6.399999999999993,15.60000000000001,4.800000000000006
6.499999999999993,16.08750000000001,4.875000000000006
6.5999999999999925,16.58250000000001,4.950000000000006
6.699999999999992,17.08500000000001,5.025000000000007
6.799999999999992,17.595000000000013,5.100000000000007
6.8999999999999915,18.112500000000015,5.175000000000007
6.999999999999991,18.637500000000017,5.250000000000007
7.099999999999991,19.17000000000002,5.325000000000007
7.19999999999999,19.71000000000002,5.4000000000000075
7.29999999999999,20.257500000000018,5.475000000000008
7.39999999999999,20.812500000000018,5.550000000000008
7.499999999999989,21.375000000000018,5.625000000000008
7.599999999999989,21.945000000000018,5.700000000000008
7.699999999999989,22.52250000000002,5.775000000000008
7.799999999999988,23.10750000000002,5.8500000000000085
7.899999999999988,23.70000000000002,5.925000000000009
7.999999999999988,24.300000000000022,6.000000000000009
8.099999999999987,24.907500000000024,6.075000000000009
8.199999999999987,25.522500000000026,6.150000000000009
8.299999999999986,26.145000000000028,6.225000000000009
8.399999999999986,26.77500000000003,6.30000000000001
8.499999999999986,27.41250000000003,6.37500000000001
8.599999999999985,28.05750000000003,6.45000000000001
8.699999999999985,28.71000000000003,6.52500000000001
8.799999999999985,29.37000000000003,6.60000000000001
8.899999999999984,30.03750000000003,6.6750000000000105
8.999999999999984,30.71250000000003,6.750000000000011
9.099999999999984,31.39500000000003,6.825000000000011
9.199999999999983,32.08500000000003,6.900000000000011
9.299999999999983,32.78250000000003,6.975000000000011
9.399999999999983,33.487500000000026,7.050000000000011
9.499999999999982,34.200000000000024,7.1250000000000115
9.599999999999982,34.92000000000002,7.200000000000012
9.699999999999982,35.64750000000002,7.275000000000012
9.799999999999981,36.38250000000002,7.350000000000012
9.89999999999998,37.12500000000002,7.425000000000012
9.99999999999998,37.87500000000002,7.500000000000012
10.09999999999998,38.63250000000002,7.575000000000013
10.19999999999998,39.39750000000002,7.650000000000013
10.29999999999998,40.17000000000002,7.725000000000013
10.399999999999979,40.950000000000024,7.800000000000013
10.499999999999979,41.737500000000026,7.875000000000013
10.599999999999978,42.53250000000003,7.9500000000000135
10.699999999999978,43.33500000000003,8.025000000000013
10.799999999999978,44.14500000000003,8.100000000000012
10.899999999999977,44.962500000000034,8.175000000000011
10.999999999999977,45.78750000000004,8.25000000000001
11.099999999999977,46.62000000000004,8.32500000000001
11.199999999999976,47.46000000000004,8.40000000000001
11.299999999999976,48.30750000000005,8.475000000000009
11.399999999999975,49.16250000000005,8.550000000000008
11.499999999999975,50.02500000000005,8.625000000000007
11.599999999999975,50.895000000000046,8.700000000000006
11.699999999999974,51.77250000000004,8.775000000000006
11.799999999999974,52.65750000000004,8.850000000000005
11.899999999999974,53.55000000000004,8.925000000000004
11.999999999999973,54.45000000000004,9.000000000000004
12.099999999999973,55.35750000000004,9.075000000000003
12.199999999999973,56.272500000000036,9.150000000000002
